time,e1,e2,e3,zd,theta,yaw_dot,x,y,h
0.049500000000001876,-1.0233959105877957,-0.07202127546398884,-0.07202127546398929,3.5335300000000003,-0.4347615166717875,0.2,1.9798583984375,1.9798583984375,1.9798583984375
0.09950000000000614,-1.0025448819383485,-0.07116127546398987,-0.07116127546398987,3.5343899999999997,-0.4379031093253773,0.2,1.98052978515625,1.98052978515625,1.98052978515625
0.1495000000000033,-0.9936687645578925,-0.071231275463989,-0.071231275463989,3.53432,-0.4392993727269728,0.2,1.9822998046875,1.9822998046875,1.9822998046875
0.19950000000000045,-0.9868876873814503,-0.0672012754639888,-0.06720127546398924,3.53835,-0.43982297150257105,0.2,1.984100341796875,1.984100341796875,1.984100341796875
0.24950000000000472,-0.9800656989138758,-0.06313127546398922,-0.06313127546398922,3.54242,-0.44034657027816937,0.2,1.9893798828125,1.9893798828125,1.9893798828125
0.2995000000000019,-0.9836315555394068,-0.059431275463988964,-0.05943127546398941,3.5461199999999997,-0.4392993727269728,0.2,1.992095947265625,1.992095947265625,1.992095947265625
0.3500000000000014,-0.9908328594449527,-0.057351275463989104,-0.05735127546398955,3.5482,-0.4379031093253773,0.2,1.9976806640625,1.9976806640625,1.9976806640625
0.3995000000000033,-0.9969422509924684,-0.05263127546398927,-0.05263127546398927,3.55292,-0.4363323129985824,0.2,2.000457763671875,2.000457763671875,2.000457763671875
0.44950000000000045,-0.9995431393885092,-0.049051275463988464,-0.04905127546398891,3.5565,-0.4354596483725852,0.2,2.006561279296875,2.006561279296875,2.006561279296875
0.5495000000000019,-0.9800372446617489,-0.03797127546398915,-0.037971275463989596,3.56758,-0.4370304446993801,0.2,2.013092041015625,2.013092041015625,2.013092041015625
0.6495000000000033,-0.9595159647633613,-0.025761275463988653,-0.025761275463989097,3.57979,-0.438601241026175,0.2,2.01873779296875,2.01873779296875,2.01873779296875
0.6995000000000005,-0.9428965667721458,-0.023511275463988568,-0.023511275463989012,3.58204,-0.4408701690537677,0.2,2.020416259765625,2.020416259765625,2.020416259765625
0.7495000000000047,-0.9227509971490684,-0.014511275463988671,-0.014511275463989115,3.59104,-0.44279003123096145,0.2,2.023834228515625,2.023834228515625,2.023834228515625
0.7995000000000019,-0.8870552081792473,-0.008561275463989215,-0.008561275463989215,3.59699,-0.4475024202113461,0.2,2.0255126953125,2.0255126953125,2.0255126953125
0.8495000000000061,-0.851306513452669,-0.0038812754639891978,-0.003881275463989642,3.60167,-0.45238934211693027,0.2,2.029144287109375,2.029144287109375,2.029144287109375
0.8995000000000033,-0.8090859847592009,0.006838724536010865,0.006838724536010865,3.61239,-0.4574507969477138,0.2,2.030609130859375,2.030609130859375,2.030609130859375
0.9495000000000005,-0.7566058405904488,0.01751872453601111,0.01751872453601111,3.6230700000000002,-0.4640830481052922,0.2,2.033538818359375,2.033538818359375,2.033538818359375
0.9995000000000047,-0.7418246923103231,0.022648724536010523,0.02264872453601008,3.6281999999999996,-0.4656538444320871,0.2,2.035003662109375,2.035003662109375,2.035003662109375
1.0495000000000019,-0.7205255864293285,0.026198724536010687,0.026198724536010687,3.63175,-0.46844637123527805,0.2,2.0380859375,2.0380859375,2.0380859375
1.0995000000000061,-0.7012556213512591,0.03248872453601104,0.03248872453601104,3.63804,-0.4705407663376713,0.2,2.039459228515625,2.039459228515625,2.039459228515625
1.1495000000000033,-0.5355129082044834,0.06495872453601104,0.06495872453601104,3.67051,-0.4914847173616032,0.2,2.042083740234375,2.042083740234375,2.042083740234375
1.1995000000000005,-0.5043300939540325,0.0704587245360111,0.07045872453601065,3.67601,-0.4954989746411902,0.2,2.04278564453125,2.04278564453125,2.04278564453125
1.2495000000000047,-0.47187332016188144,0.07608872453601112,0.07608872453601068,3.68164,-0.49968776484597655,0.2,2.044952392578125,2.044952392578125,2.044952392578125
1.3495000000000061,-0.4435870386417542,0.08438872453601087,0.08438872453601087,3.68994,-0.5028293574995664,0.2,2.0469970703125,2.0469970703125,2.0469970703125
1.3995000000000033,-0.41825561419727686,0.08841872453601063,0.08841872453601018,3.6939699999999998,-0.5061454830783556,0.2,2.04742431640625,2.04742431640625,2.04742431640625
1.4495000000000005,-0.37049015318364464,0.09579872453601102,0.09579872453601013,3.7013499999999997,-0.5124286683855351,0.2,2.0487060546875,2.0487060546875,2.0487060546875
1.4995000000000047,-0.3516792358803227,0.09661872453601106,0.09661872453601106,3.70217,-0.5152211951887261,0.2,2.04974365234375,2.04974365234375,2.04974365234375
1.5495000000000019,-0.297865658136959,0.10218872453601069,0.10218872453601069,3.70774,-0.5227261109723017,0.2,2.051849365234375,2.051849365234375,2.051849365234375
1.5995000000000061,-0.2686357393713412,0.11009872453601144,0.110098724536011,3.71565,-0.526042236551091,0.2,2.0526123046875,2.0526123046875,2.0526123046875
1.6495000000000033,-0.17026256026963127,0.11560872453601068,0.11560872453601023,3.72116,-0.5405284693426439,0.2,2.053955078125,2.053955078125,2.053955078125
1.6995000000000005,-0.13304082653002647,0.11291872453601082,0.11291872453601082,3.71847,-0.5468116546498234,0.2,2.054412841796875,2.054412841796875,2.054412841796875
1.7495000000000047,-0.12899302393154377,0.11787872453601089,0.11787872453601089,3.72343,-0.546637121724624,0.2,2.05517578125,2.05517578125,2.05517578125
1.7995000000000019,-0.08976314923768403,0.11829872453601054,0.11829872453601054,3.72385,-0.5527457741066042,0.2,2.055328369140625,2.055328369140625,2.055328369140625
1.8495000000000061,-0.0848578599228329,0.1198087245360111,0.1198087245360111,3.7253600000000002,-0.5532693728822025,0.2,2.055511474609375,2.055511474609375,2.055511474609375
1.8995000000000033,-0.028395509945517983,0.13554872453601075,0.13554872453601075,3.7411,-0.5595525581893821,0.2,2.05572509765625,2.05572509765625,2.05572509765625
1.9495000000000005,-0.024185340338575223,0.13742872453601107,0.13742872453601063,3.74298,-0.5599016240397809,0.2,2.055938720703125,2.055938720703125,2.055938720703125
1.9995000000000047,-0.02004559504450487,0.13507872453601077,0.13507872453601033,3.74063,-0.5609488215909775,0.2,2.056182861328125,2.056182861328125,2.056182861328125
2.0505000000000067,-0.014162939223687943,0.13748872453601102,0.13748872453601102,3.74304,-0.5614724203665759,0.2,2.056884765625,2.056884765625,2.056884765625
2.099500000000006,-0.011364432129921553,0.13492872453601112,0.13492872453601112,3.74048,-0.562345084992573,0.2,2.05718994140625,2.05718994140625,2.05718994140625
2.1495000000000033,0.011094423999632674,0.1332387245360107,0.1332387245360107,3.73879,-0.5661848093469605,0.2,2.057586669921875,2.057586669921875,2.057586669921875
2.1995000000000005,0.004709174037497377,0.13447872453601128,0.13447872453601128,3.7400300000000004,-0.5649630788705644,0.2,2.0579833984375,2.0579833984375,2.0579833984375
2.25,0.026562587632161794,0.13840872453601083,0.13840872453601083,3.74396,-0.5677556056737554,0.2,2.05908203125,2.05908203125,2.05908203125
2.3005000000000067,0.03182260862238451,0.1381787245360111,0.1381787245360111,3.7437300000000002,-0.5686282702997525,0.2,2.059539794921875,2.059539794921875,2.059539794921875
2.349500000000006,0.033119566988675686,0.13733872453601093,0.13733872453601093,3.74289,-0.5689773361501514,0.2,2.060302734375,2.060302734375,2.060302734375
2.3995000000000033,0.05179440215475406,0.1403687245360108,0.1403687245360108,3.74592,-0.5714207971029436,0.2,2.060638427734375,2.060638427734375,2.060638427734375
2.4495000000000005,0.05567794546083604,0.14090872453601078,0.14090872453601078,3.74646,-0.5719443958785418,0.2,2.060882568359375,2.060882568359375,2.060882568359375
2.4995000000000047,0.04908636708801417,0.13989872453601082,0.13989872453601082,3.74545,-0.5710717312525446,0.2,2.060760498046875,2.060760498046875,2.060760498046875
2.549500000000002,0.04271822578115092,0.13705872453601042,0.13705872453601042,3.74261,-0.5705481324769462,0.2,2.060211181640625,2.060211181640625,2.060211181640625
2.599500000000006,0.04803434747794455,0.1379087245360111,0.1379087245360111,3.7434600000000002,-0.571246264177744,0.2,2.059967041015625,2.059967041015625,2.059967041015625
2.6495000000000033,0.0453421799532947,0.1333887245360108,0.1333887245360108,3.73894,-0.5715953300281429,0.2,2.059356689453125,2.059356689453125,2.059356689453125
2.6995000000000005,0.04760594878677349,0.13243872453601035,0.13243872453601035,3.73799,-0.5721189288037413,0.2,2.05877685546875,2.05877685546875,2.05877685546875
2.7495000000000047,0.0461584058034159,0.13312872453601132,0.13312872453601132,3.73868,-0.5717698629533423,0.2,2.0577392578125,2.0577392578125,2.0577392578125
2.849500000000006,0.04675534576776741,0.12962872453601104,0.12962872453601104,3.7351799999999997,-0.57246799465414,0.2,2.0572509765625,2.0572509765625,2.0572509765625
2.900500000000001,0.054267546080998486,0.12444872453601086,0.12444872453601086,3.73,-0.5745623897565333,0.2,2.057159423828125,2.057159423828125,2.057159423828125
2.9495000000000005,0.05969810588004343,0.12441872453601066,0.12441872453601066,3.72997,-0.5754350543825304,0.2,2.056854248046875,2.056854248046875,2.056854248046875
2.9995000000000047,0.05304229437830443,0.12030872453601082,0.12030872453601082,3.72586,-0.5750859885321317,0.2,2.056640625,2.056640625,2.056640625
3.049500000000002,0.03344458139658091,0.09035872453601135,0.09035872453601135,3.69591,-0.5771803836345248,0.2,2.055755615234375,2.055755615234375,2.055755615234375
3.099500000000006,0.03234176635227648,0.0873687245360113,0.0873687245360113,3.69292,-0.5775294494849237,0.2,2.055328369140625,2.055328369140625,2.055328369140625
3.1995000000000005,0.014061634292356295,0.08546872453601084,0.08546872453601084,3.69102,-0.5749114556069321,0.14,2.0545654296875,2.0545654296875,2.0545654296875
3.25,0.00886378220713091,0.08665872453601109,0.08665872453601109,3.69221,-0.5738642580557356,0.15001980198019801,2.0543212890625,2.0543212890625,2.0543212890625
3.299500000000002,0.00785402292544024,0.08572872453601121,0.08572872453601121,3.6912800000000003,-0.5738642580557356,0.12193939393939394,2.054229736328125,2.054229736328125,2.054229736328125
3.349500000000006,0.0019337826899263888,0.08625872453601025,0.08625872453601025,3.69181,-0.572817060504539,0.098,2.05426025390625,2.05426025390625,2.05426025390625
3.3995000000000033,-0.05559737271810361,0.06804872453601085,0.06804872453601085,3.6736,-0.5667084081225587,0.054,2.05426025390625,2.05426025390625,2.05426025390625
3.4495000000000005,-0.06266279201142311,0.06448872453601062,0.06448872453601062,3.6700399999999997,-0.5661848093469605,0.054,2.053985595703125,2.053985595703125,2.053985595703125
3.4995000000000047,-0.07505499797667792,0.06402872453601072,0.06402872453601027,3.66958,-0.5642649471697667,0.016,2.0538330078125,2.0538330078125,2.0538330078125
3.549500000000002,-0.07961711823166207,0.0627987245360111,0.0627987245360111,3.6683499999999998,-0.5637413483941683,0.014,2.05401611328125,2.05401611328125,2.05401611328125
3.599500000000006,-0.08549155365521388,0.06033872453601141,0.06033872453601097,3.66589,-0.5632177496185702,0.016,2.05401611328125,2.05401611328125,2.05401611328125
3.6495000000000033,-0.08824415824160958,0.056748724536010986,0.056748724536010986,3.6623,-0.5633922825437696,-0.014,2.053985595703125,2.053985595703125,2.053985595703125
3.6995000000000005,-0.08100383585544524,0.055438724536011286,0.05543872453601084,3.66099,-0.564788545945365,-0.018000000000000002,2.053680419921875,2.053680419921875,2.053680419921875
3.7495000000000047,-0.08425807810658492,0.052398724536011354,0.05239872453601091,3.65795,-0.564788545945365,-0.026000000000000002,2.052581787109375,2.052581787109375,2.052581787109375
3.799500000000002,-0.08030312790854044,0.0510587245360119,0.05105872453601146,3.65661,-0.5656612105713621,-0.034,2.0521240234375,2.0521240234375,2.0521240234375
3.849500000000006,-0.09056988627147922,0.04750872453601085,0.04750872453601085,3.65306,-0.5646140130201657,-0.042,2.051422119140625,2.051422119140625,2.051422119140625
3.8995000000000033,-0.07090629618044986,0.040798724536010855,0.040798724536010855,3.64635,-0.5689773361501514,-0.05,2.051116943359375,2.051116943359375,2.051116943359375
3.9995000000000047,-0.07530947389200238,0.03571872453601088,0.03571872453601088,3.64127,-0.5691518690753509,-0.038,2.05078125,2.05078125,2.05078125
4.049500000000002,-0.07973309043682075,0.03558872453601092,0.035588724536010474,3.64114,-0.5684537373745532,-0.04,2.050567626953125,2.050567626953125,2.050567626953125
4.099500000000006,-0.08781880109085183,0.028078724536011013,0.028078724536011013,3.63363,-0.5684537373745532,-0.03,2.049896240234375,2.049896240234375,2.049896240234375
4.149500000000003,-0.08426919021458001,0.022458724536011054,0.022458724536011054,3.62801,-0.570024533701348,-0.032,2.048248291015625,2.048248291015625,2.048248291015625
4.1995000000000005,-0.0957645460478096,0.02069872453601107,0.02069872453601107,3.62625,-0.5684537373745532,-0.032,2.047637939453125,2.047637939453125,2.047637939453125
4.249500000000005,-0.13202593073768565,0.014758724536010792,0.014758724536010348,3.62031,-0.563566815468969,-0.022,2.04632568359375,2.04632568359375,2.04632568359375
4.299500000000002,-0.1397604683746052,0.013518724536010662,0.013518724536010662,3.6190700000000002,-0.5625196179177724,-0.024,2.04608154296875,2.04608154296875,2.04608154296875
4.349500000000006,-0.14622354695286655,0.012468724536010889,0.012468724536010889,3.61802,-0.5616469532917753,-0.024,2.045501708984375,2.045501708984375,2.045501708984375
4.4495000000000005,-0.21512705999439197,-0.008211275463989587,-0.008211275463989587,3.59734,-0.5539675045830001,-0.024,2.044830322265625,2.044830322265625,2.044830322265625
4.499500000000005,-0.23467884651605342,-0.011571275463988506,-0.01157127546398895,3.59398,-0.5513495107050087,-0.024,2.044281005859375,2.044281005859375,2.044281005859375
4.549500000000002,-0.23794703238115655,-0.013671275463988941,-0.013671275463988941,3.59188,-0.5511749777798093,-0.014,2.0435791015625,2.0435791015625,2.0435791015625
4.599500000000006,-0.2519481764187854,-0.01582127546398926,-0.01582127546398926,3.58973,-0.5492551156026155,-0.016,2.04345703125,2.04345703125,2.04345703125
4.649500000000003,-0.25495200736980594,-0.016651275463988924,-0.016651275463988924,3.5889,-0.5489060497522167,-0.006,2.0430908203125,2.0430908203125,2.0430908203125
4.6995000000000005,-0.26174221885456683,-0.028261275463989044,-0.028261275463989044,3.57729,-0.5497787143782138,-0.008,2.04302978515625,2.04302978515625,2.04302978515625
4.749500000000005,-0.27183986320597464,-0.028751275463989145,-0.02875127546398959,3.5768,-0.5482079180514189,-0.008,2.04290771484375,2.04290771484375,2.04290771484375
4.799500000000002,-0.2881190686788062,-0.033131275463988974,-0.033131275463988974,3.57242,-0.5462880558742251,-0.008,2.043060302734375,2.043060302734375,2.043060302734375
4.849500000000006,-0.2674649574090142,-0.03780127546398848,-0.037801275463988926,3.56775,-0.5504768460790115,0.002,2.042999267578125,2.042999267578125,2.042999267578125
4.899500000000003,-0.27488242596818235,-0.044891275463988745,-0.04489127546398919,3.56066,-0.5504768460790115,0.0,2.04254150390625,2.04254150390625,2.04254150390625
4.9495000000000005,-0.2719824035843095,-0.04009127546398883,-0.04009127546398883,3.56546,-0.5501277802286126,0.01,2.04193115234375,2.04193115234375,2.04193115234375
4.999500000000005,-0.2680976056094351,-0.03739127546398935,-0.03739127546398935,3.5681599999999998,-0.5503023131538122,0.008,2.04180908203125,2.04180908203125,2.04180908203125
5.049500000000002,-0.30194318470687254,-0.044391275463989466,-0.04439127546398991,3.5611599999999997,-0.5459389900238263,0.008,2.041717529296875,2.041717529296875,2.041717529296875
5.099500000000006,-0.31203103325024895,-0.04592127546398883,-0.04592127546398883,3.5596300000000003,-0.5445427266222308,0.008,2.041473388671875,2.041473388671875,2.041473388671875
5.149500000000003,-0.3170561945638548,-0.04872127546398897,-0.04872127546398941,3.5568299999999997,-0.544193660771832,0.008,2.0408935546875,2.0408935546875,2.0408935546875
5.1995000000000005,-0.3099611865821812,-0.05109127546398895,-0.051091275463989394,3.55446,-0.5457644570986269,0.008,2.04052734375,2.04052734375,2.04052734375
5.299500000000002,-0.26772723621744987,-0.06320127546398924,-0.06320127546398924,3.54235,-0.5548401692089974,0.018000000000000002,2.03936767578125,2.03936767578125,2.03936767578125
5.349500000000006,-0.25743638073163444,-0.0663812754639892,-0.06638127546398964,3.53917,-0.55710909723659,0.016,2.03863525390625,2.03863525390625,2.03863525390625
5.399500000000003,-0.23914922528296767,-0.07183127546398937,-0.07183127546398937,3.5337199999999998,-0.5611233545161769,0.026000000000000002,2.038421630859375,2.038421630859375,2.038421630859375
5.4495000000000005,-0.2301342579603758,-0.07414127546398896,-0.07414127546398941,3.5314099999999997,-0.5630432166933707,0.024,2.038421630859375,2.038421630859375,2.038421630859375
5.549500000000002,-0.23005170083539506,-0.07991127546398902,-0.07991127546398946,3.5256399999999997,-0.5640904142445673,0.024,2.0369873046875,2.0369873046875,2.0369873046875
5.599500000000006,-0.22886119563793095,-0.08946127546398897,-0.08946127546398941,3.51609,-0.566010276421761,0.024,2.03662109375,2.03662109375,2.03662109375
5.649500000000003,-0.2349873482678877,-0.10861127546398874,-0.10861127546398963,3.49694,-0.5684537373745532,0.024,2.036041259765625,2.036041259765625,2.036041259765625
5.6995000000000005,-0.2261477561341807,-0.11659127546398862,-0.11659127546398906,3.48896,-0.5714207971029436,0.024,2.03582763671875,2.03582763671875,2.03582763671875
5.749500000000005,-0.22768370672871008,-0.1180112754639886,-0.11801127546398904,3.48754,-0.5714207971029436,0.024,2.03546142578125,2.03546142578125,2.03546142578125
5.799500000000002,-0.22173049332572115,-0.12572127546398937,-0.12572127546398937,3.4798299999999998,-0.5738642580557356,0.014,2.03546142578125,2.03546142578125,2.03546142578125
5.849500000000006,-0.21872222838524458,-0.12858127546398945,-0.1285812754639899,3.4769699999999997,-0.5749114556069321,0.016,2.03546142578125,2.03546142578125,2.03546142578125
5.899500000000003,-0.21608099078867093,-0.13083127546398954,-0.13083127546398954,3.4747199999999996,-0.5757841202329294,0.006,2.03521728515625,2.03521728515625,2.03521728515625
5.9495000000000005,-0.20926534399353347,-0.12831127546398946,-0.1283112754639899,3.4772399999999997,-0.576482251933727,0.008,2.035064697265625,2.035064697265625,2.035064697265625
6.000500000000002,-0.20353997021883607,-0.12586127546398895,-0.12586127546398895,3.47969,-0.5770058507093254,0.008,2.035125732421875,2.035125732421875,2.035125732421875
6.049500000000002,-0.19992566339659446,-0.1290712754639891,-0.12907127546398955,3.47648,-0.5782275811857214,0.018040816326530613,2.03515625,2.03515625,2.03515625
6.099500000000006,-0.23360718839073158,-0.14040127546398917,-0.14040127546398962,3.46515,-0.5745623897565333,0.026000000000000002,2.034881591796875,2.034881591796875,2.034881591796875
6.152000000000001,-0.23468364196074676,-0.13765127546398848,-0.13765127546398892,3.4679,-0.5738642580557356,0.024,2.034454345703125,2.034454345703125,2.034454345703125
6.1995000000000005,-0.22601725431668251,-0.12779127546398916,-0.12779127546398916,3.4777600000000004,-0.5735151922053366,0.034105263157894736,2.034393310546875,2.034393310546875,2.034393310546875
6.299500000000002,-0.2051271437097597,-0.13011127546398882,-0.13011127546398926,3.47544,-0.5775294494849237,0.042,2.03424072265625,2.03424072265625,2.03424072265625
6.349500000000006,-0.1918404846202919,-0.1309612754639886,-0.13096127546398906,3.47459,-0.5799729104377157,0.05,2.03460693359375,2.03460693359375,2.03460693359375
6.399500000000003,-0.19448470377054639,-0.12874127546398917,-0.12874127546398917,3.47681,-0.5791002458117185,0.048,2.035064697265625,2.035064697265625,2.035064697265625
